#1	
double data(8760,2) #Columns: Time(s); Cold water temperature (°C)	
1800	8.12
5400	8.08
9000	8.03
12600	8
16200	7.97
19800	7.94
23400	7.92
27000	7.91
30600	7.9
34200	7.9
37800	7.9
41400	7.9
45000	7.9
48600	7.9
52200	7.9
55800	7.9
59400	7.9
63000	7.9
66600	7.9
70200	7.9
73800	7.9
77400	7.9
81000	7.9
84600	7.9
88200	7.9
91800	7.9
95400	7.9
99000	7.9
102600	7.9
106200	7.9
109800	8
113400	8
117000	8
120600	8
124200	8
127800	8
131400	8
135000	8
138600	8
142200	8
145800	8
149400	8
153000	8
156600	8
160200	8
163800	8
167400	8
171000	8
174600	8.1
178200	8.1
181800	8.1
185400	8.1
189000	8.1
192600	8.1
196200	8.1
199800	8.1
203400	8.1
207000	8.1
210600	8.1
214200	8.1
217800	8.1
221400	8.1
225000	8.1
228600	8.1
232200	8.1
235800	8.1
239400	8.1
243000	8.1
246600	8.1
250200	8.1
253800	8.1
257400	8.1
261000	8.2
264600	8.2
268200	8.2
271800	8.2
275400	8.2
279000	8.2
282600	8.2
286200	8.2
289800	8.2
293400	8.2
297000	8.2
300600	8.2
304200	8.2
307800	8.2
311400	8.2
315000	8.2
318600	8.2
322200	8.2
325800	8.2
329400	8.2
333000	8.2
336600	8.2
340200	8.2
343800	8.2
347400	8.2
351000	8.2
354600	8.2
358200	8.2
361800	8.2
365400	8.2
369000	8.2
372600	8.2
376200	8.2
379800	8.2
383400	8.2
387000	8.2
390600	8.2
394200	8.2
397800	8.2
401400	8.2
405000	8.2
408600	8.2
412200	8.2
415800	8.2
419400	8.2
423000	8.2
426600	8.2
430200	8.2
433800	8.2
437400	8.2
441000	8.2
444600	8.2
448200	8.2
451800	8.2
455400	8.2
459000	8.2
462600	8.2
466200	8.2
469800	8.2
473400	8.2
477000	8.2
480600	8.2
484200	8.2
487800	8.2
491400	8.2
495000	8.2
498600	8.2
502200	8.2
505800	8.2
509400	8.2
513000	8.2
516600	8.2
520200	8.2
523800	8.2
527400	8.2
531000	8.2
534600	8.2
538200	8.2
541800	8.2
545400	8.2
549000	8.2
552600	8.2
556200	8.2
559800	8.2
563400	8.2
567000	8.2
570600	8.2
574200	8.2
577800	8.2
581400	8.2
585000	8.2
588600	8.2
592200	8.2
595800	8.2
599400	8.2
603000	8.2
606600	8.2
610200	8.2
613800	8.2
617400	8.2
621000	8.2
624600	8.2
628200	8.3
631800	8.3
635400	8.3
639000	8.3
642600	8.3
646200	8.3
649800	8.3
653400	8.3
657000	8.3
660600	8.3
664200	8.3
667800	8.3
671400	8.3
675000	8.3
678600	8.3
682200	8.3
685800	8.3
689400	8.3
693000	8.3
696600	8.3
700200	8.4
703800	8.4
707400	8.4
711000	8.4
714600	8.4
718200	8.4
721800	8.4
725400	8.4
729000	8.4
732600	8.4
736200	8.4
739800	8.4
743400	8.4
747000	8.4
750600	8.4
754200	8.4
757800	8.4
761400	8.4
765000	8.4
768600	8.4
772200	8.4
775800	8.4
779400	8.4
783000	8.4
786600	8.4
790200	8.4
793800	8.4
797400	8.4
801000	8.4
804600	8.4
808200	8.5
811800	8.5
815400	8.5
819000	8.5
822600	8.5
826200	8.5
829800	8.5
833400	8.5
837000	8.5
840600	8.5
844200	8.5
847800	8.5
851400	8.5
855000	8.5
858600	8.5
862200	8.5
865800	8.5
869400	8.5
873000	8.5
876600	8.5
880200	8.5
883800	8.5
887400	8.5
891000	8.5
894600	8.5
898200	8.5
901800	8.5
905400	8.5
909000	8.5
912600	8.5
916200	8.5
919800	8.5
923400	8.5
927000	8.5
930600	8.5
934200	8.6
937800	8.6
941400	8.6
945000	8.6
948600	8.6
952200	8.6
955800	8.6
959400	8.6
963000	8.6
966600	8.6
970200	8.6
973800	8.6
977400	8.6
981000	8.6
984600	8.6
988200	8.6
991800	8.6
995400	8.6
999000	8.6
1002600	8.6
1006200	8.6
1009800	8.6
1013400	8.6
1017000	8.6
1020600	8.6
1024200	8.6
1027800	8.6
1031400	8.6
1035000	8.6
1038600	8.6
1042200	8.6
1045800	8.6
1049400	8.7
1053000	8.7
1056600	8.7
1060200	8.7
1063800	8.7
1067400	8.7
1071000	8.7
1074600	8.7
1078200	8.7
1081800	8.7
1085400	8.7
1089000	8.7
1092600	8.7
1096200	8.7
1099800	8.7
1103400	8.7
1107000	8.7
1110600	8.7
1114200	8.7
1117800	8.7
1121400	8.7
1125000	8.7
1128600	8.7
1132200	8.7
1135800	8.7
1139400	8.7
1143000	8.7
1146600	8.7
1150200	8.7
1153800	8.7
1157400	8.7
1161000	8.7
1164600	8.7
1168200	8.7
1171800	8.7
1175400	8.7
1179000	8.7
1182600	8.7
1186200	8.7
1189800	8.7
1193400	8.7
1197000	8.7
1200600	8.7
1204200	8.7
1207800	8.7
1211400	8.7
1215000	8.7
1218600	8.7
1222200	8.7
1225800	8.7
1229400	8.7
1233000	8.7
1236600	8.7
1240200	8.7
1243800	8.7
1247400	8.7
1251000	8.6
1254600	8.6
1258200	8.6
1261800	8.6
1265400	8.6
1269000	8.6
1272600	8.6
1276200	8.6
1279800	8.6
1283400	8.6
1287000	8.6
1290600	8.6
1294200	8.6
1297800	8.6
1301400	8.6
1305000	8.6
1308600	8.6
1312200	8.6
1315800	8.6
1319400	8.6
1323000	8.6
1326600	8.6
1330200	8.5
1333800	8.5
1337400	8.5
1341000	8.5
1344600	8.5
1348200	8.5
1351800	8.5
1355400	8.5
1359000	8.5
1362600	8.5
1366200	8.5
1369800	8.5
1373400	8.5
1377000	8.5
1380600	8.5
1384200	8.5
1387800	8.4
1391400	8.4
1395000	8.4
1398600	8.4
1402200	8.4
1405800	8.4
1409400	8.4
1413000	8.4
1416600	8.4
1420200	8.4
1423800	8.4
1427400	8.4
1431000	8.4
1434600	8.4
1438200	8.4
1441800	8.4
1445400	8.4
1449000	8.3
1452600	8.3
1456200	8.3
1459800	8.3
1463400	8.3
1467000	8.3
1470600	8.3
1474200	8.3
1477800	8.3
1481400	8.3
1485000	8.3
1488600	8.3
1492200	8.3
1495800	8.3
1499400	8.3
1503000	8.3
1506600	8.3
1510200	8.3
1513800	8.3
1517400	8.3
1521000	8.3
1524600	8.3
1528200	8.3
1531800	8.3
1535400	8.3
1539000	8.3
1542600	8.3
1546200	8.3
1549800	8.2
1553400	8.2
1557000	8.2
1560600	8.2
1564200	8.2
1567800	8.2
1571400	8.2
1575000	8.2
1578600	8.2
1582200	8.2
1585800	8.3
1589400	8.3
1593000	8.2
1596600	8.2
1600200	8.2
1603800	8.2
1607400	8.2
1611000	8.2
1614600	8.2
1618200	8.2
1621800	8.2
1625400	8.2
1629000	8.2
1632600	8.2
1636200	8.2
1639800	8.2
1643400	8.2
1647000	8.2
1650600	8.2
1654200	8.2
1657800	8.2
1661400	8.2
1665000	8.2
1668600	8.2
1672200	8.2
1675800	8.2
1679400	8.2
1683000	8.2
1686600	8.2
1690200	8.2
1693800	8.2
1697400	8.2
1701000	8.2
1704600	8.2
1708200	8.2
1711800	8.2
1715400	8.2
1719000	8.2
1722600	8.2
1726200	8.2
1729800	8.2
1733400	8.2
1737000	8.2
1740600	8.2
1744200	8.2
1747800	8.2
1751400	8.2
1755000	8.2
1758600	8.2
1762200	8.2
1765800	8.2
1769400	8.2
1773000	8.2
1776600	8.2
1780200	8.2
1783800	8.2
1787400	8.2
1791000	8.2
1794600	8.2
1798200	8.2
1801800	8.2
1805400	8.2
1809000	8.2
1812600	8.2
1816200	8.2
1819800	8.2
1823400	8.2
1827000	8.2
1830600	8.2
1834200	8.2
1837800	8.2
1841400	8.2
1845000	8.2
1848600	8.2
1852200	8.2
1855800	8.3
1859400	8.2
1863000	8.3
1866600	8.3
1870200	8.3
1873800	8.3
1877400	8.3
1881000	8.3
1884600	8.3
1888200	8.3
1891800	8.3
1895400	8.3
1899000	8.3
1902600	8.3
1906200	8.3
1909800	8.3
1913400	8.3
1917000	8.3
1920600	8.3
1924200	8.3
1927800	8.3
1931400	8.3
1935000	8.3
1938600	8.3
1942200	8.3
1945800	8.3
1949400	8.3
1953000	8.3
1956600	8.3
1960200	8.3
1963800	8.3
1967400	8.3
1971000	8.3
1974600	8.3
1978200	8.3
1981800	8.3
1985400	8.3
1989000	8.3
1992600	8.3
1996200	8.3
1999800	8.3
2003400	8.3
2007000	8.3
2010600	8.3
2014200	8.3
2017800	8.3
2021400	8.3
2025000	8.3
2028600	8.3
2032200	8.3
2035800	8.3
2039400	8.3
2043000	8.3
2046600	8.3
2050200	8.3
2053800	8.3
2057400	8.3
2061000	8.3
2064600	8.3
2068200	8.3
2071800	8.3
2075400	8.3
2079000	8.2
2082600	8.2
2086200	8.2
2089800	8.2
2093400	8.2
2097000	8.2
2100600	8.2
2104200	8.2
2107800	8.2
2111400	8.2
2115000	8.2
2118600	8.2
2122200	8.2
2125800	8.2
2129400	8.2
2133000	8.2
2136600	8.2
2140200	8.2
2143800	8.2
2147400	8.2
2151000	8.1
2154600	8.1
2158200	8.1
2161800	8.1
2165400	8.1
2169000	8.1
2172600	8.1
2176200	8.1
2179800	8.1
2183400	8.1
2187000	8.1
2190600	8.1
2194200	8.1
2197800	8
2201400	8.1
2205000	8
2208600	8
2212200	8
2215800	8
2219400	8
2223000	8
2226600	8
2230200	8
2233800	8
2237400	8
2241000	8
2244600	7.9
2248200	7.9
2251800	7.9
2255400	7.9
2259000	7.9
2262600	7.9
2266200	7.9
2269800	7.9
2273400	7.9
2277000	7.9
2280600	7.9
2284200	7.9
2287800	7.8
2291400	7.8
2295000	7.8
2298600	7.8
2302200	7.8
2305800	7.8
2309400	7.8
2313000	7.8
2316600	7.8
2320200	7.7
2323800	7.7
2327400	7.7
2331000	7.7
2334600	7.7
2338200	7.7
2341800	7.7
2345400	7.7
2349000	7.7
2352600	7.6
2356200	7.6
2359800	7.6
2363400	7.6
2367000	7.6
2370600	7.6
2374200	7.6
2377800	7.6
2381400	7.6
2385000	7.6
2388600	7.6
2392200	7.5
2395800	7.5
2399400	7.5
2403000	7.5
2406600	7.5
2410200	7.5
2413800	7.5
2417400	7.5
2421000	7.5
2424600	7.5
2428200	7.5
2431800	7.4
2435400	7.4
2439000	7.4
2442600	7.4
2446200	7.4
2449800	7.4
2453400	7.4
2457000	7.4
2460600	7.4
2464200	7.4
2467800	7.4
2471400	7.4
2475000	7.3
2478600	7.3
2482200	7.3
2485800	7.3
2489400	7.3
2493000	7.3
2496600	7.3
2500200	7.3
2503800	7.3
2507400	7.3
2511000	7.3
2514600	7.3
2518200	7.3
2521800	7.3
2525400	7.3
2529000	7.3
2532600	7.3
2536200	7.3
2539800	7.3
2543400	7.3
2547000	7.2
2550600	7.2
2554200	7.2
2557800	7.2
2561400	7.2
2565000	7.2
2568600	7.2
2572200	7.2
2575800	7.2
2579400	7.2
2583000	7.2
2586600	7.2
2590200	7.2
2593800	7.2
2597400	7.2
2601000	7.2
2604600	7.2
2608200	7.2
2611800	7.2
2615400	7.2
2619000	7.2
2622600	7.2
2626200	7.1
2629800	7.1
2633400	7.1
2637000	7.1
2640600	7.1
2644200	7.1
2647800	7.1
2651400	7.1
2655000	7.09
2658600	7.07
2662200	7.05
2665800	7.03
2669400	7
2673000	6.97
2676600	6.94
2680200	6.9
2683800	6.87
2687400	6.83
2691000	6.79
2694600	6.75
2698200	6.71
2701800	6.68
2705400	6.64
2709000	6.61
2712600	6.58
2716200	6.55
2719800	6.52
2723400	6.5
2727000	6.48
2730600	6.47
2734200	6.46
2737800	6.45
2741400	6.45
2745000	6.45
2748600	6.45
2752200	6.46
2755800	6.46
2759400	6.47
2763000	6.49
2766600	6.5
2770200	6.51
2773800	6.53
2777400	6.55
2781000	6.56
2784600	6.58
2788200	6.6
2791800	6.62
2795400	6.64
2799000	6.65
2802600	6.67
2806200	6.69
2809800	6.7
2813400	6.71
2817000	6.73
2820600	6.74
2824200	6.75
2827800	6.75
2831400	6.76
2835000	6.77
2838600	6.77
2842200	6.78
2845800	6.78
2849400	6.79
2853000	6.79
2856600	6.79
2860200	6.79
2863800	6.79
2867400	6.79
2871000	6.79
2874600	6.8
2878200	6.8
2881800	6.8
2885400	6.8
2889000	6.8
2892600	6.8
2896200	6.8
2899800	6.8
2903400	6.8
2907000	6.81
2910600	6.81
2914200	6.81
2917800	6.81
2921400	6.82
2925000	6.82
2928600	6.83
2932200	6.83
2935800	6.83
2939400	6.84
2943000	6.84
2946600	6.85
2950200	6.85
2953800	6.86
2957400	6.86
2961000	6.87
2964600	6.87
2968200	6.88
2971800	6.88
2975400	6.89
2979000	6.89
2982600	6.9
2986200	6.91
2989800	6.91
2993400	6.92
2997000	6.92
3000600	6.93
3004200	6.93
3007800	6.94
3011400	6.94
3015000	6.95
3018600	6.95
3022200	6.96
3025800	6.96
3029400	6.96
3033000	6.97
3036600	6.97
3040200	6.98
3043800	6.98
3047400	6.98
3051000	6.99
3054600	6.99
3058200	6.99
3061800	7
3065400	7
3069000	7
3072600	7
3076200	7
3079800	7.01
3083400	7.01
3087000	7.01
3090600	7.01
3094200	7.01
3097800	7.01
3101400	7.01
3105000	7.01
3108600	7.01
3112200	7.01
3115800	7.01
3119400	7.01
3123000	7.01
3126600	7.01
3130200	7.01
3133800	7.01
3137400	7.01
3141000	7
3144600	7
3148200	7
3151800	7
3155400	7
3159000	7
3162600	7
3166200	7
3169800	7
3173400	6.99
3177000	6.99
3180600	6.99
3184200	6.99
3187800	6.99
3191400	6.99
3195000	6.99
3198600	6.99
3202200	6.99
3205800	6.99
3209400	6.99
3213000	6.99
3216600	6.99
3220200	6.99
3223800	6.99
3227400	6.99
3231000	6.99
3234600	7
3238200	7
3241800	7
3245400	7
3249000	7
3252600	7.01
3256200	7.01
3259800	7.01
3263400	7.02
3267000	7.02
3270600	7.03
3274200	7.03
3277800	7.03
3281400	7.04
3285000	7.04
3288600	7.05
3292200	7.05
3295800	7.06
3299400	7.06
3303000	7.07
3306600	7.07
3310200	7.08
3313800	7.08
3317400	7.09
3321000	7.09
3324600	7.1
3328200	7.1
3331800	7.1
3335400	7.11
3339000	7.11
3342600	7.12
3346200	7.12
3349800	7.13
3353400	7.13
3357000	7.14
3360600	7.14
3364200	7.14
3367800	7.15
3371400	7.15
3375000	7.16
3378600	7.16
3382200	7.17
3385800	7.17
3389400	7.17
3393000	7.18
3396600	7.18
3400200	7.19
3403800	7.19
3407400	7.19
3411000	7.2
3414600	7.2
3418200	7.2
3421800	7.21
3425400	7.21
3429000	7.21
3432600	7.22
3436200	7.22
3439800	7.23
3443400	7.23
3447000	7.23
3450600	7.24
3454200	7.24
3457800	7.24
3461400	7.25
3465000	7.25
3468600	7.26
3472200	7.26
3475800	7.27
3479400	7.27
3483000	7.27
3486600	7.28
3490200	7.28
3493800	7.29
3497400	7.29
3501000	7.3
3504600	7.31
3508200	7.31
3511800	7.32
3515400	7.32
3519000	7.33
3522600	7.34
3526200	7.34
3529800	7.35
3533400	7.35
3537000	7.36
3540600	7.36
3544200	7.37
3547800	7.37
3551400	7.38
3555000	7.38
3558600	7.39
3562200	7.39
3565800	7.39
3569400	7.4
3573000	7.4
3576600	7.4
3580200	7.4
3583800	7.4
3587400	7.4
3591000	7.4
3594600	7.4
3598200	7.39
3601800	7.39
3605400	7.39
3609000	7.38
3612600	7.38
3616200	7.38
3619800	7.37
3623400	7.37
3627000	7.36
3630600	7.35
3634200	7.35
3637800	7.34
3641400	7.34
3645000	7.33
3648600	7.33
3652200	7.32
3655800	7.32
3659400	7.31
3663000	7.31
3666600	7.31
3670200	7.3
3673800	7.3
3677400	7.3
3681000	7.3
3684600	7.3
3688200	7.29
3691800	7.29
3695400	7.29
3699000	7.3
3702600	7.3
3706200	7.3
3709800	7.3
3713400	7.3
3717000	7.3
3720600	7.3
3724200	7.3
3727800	7.3
3731400	7.3
3735000	7.3
3738600	7.31
3742200	7.31
3745800	7.31
3749400	7.3
3753000	7.3
3756600	7.3
3760200	7.3
3763800	7.3
3767400	7.29
3771000	7.29
3774600	7.29
3778200	7.28
3781800	7.28
3785400	7.27
3789000	7.27
3792600	7.26
3796200	7.26
3799800	7.25
3803400	7.25
3807000	7.24
3810600	7.23
3814200	7.23
3817800	7.22
3821400	7.22
3825000	7.22
3828600	7.21
3832200	7.21
3835800	7.21
3839400	7.2
3843000	7.2
3846600	7.2
3850200	7.2
3853800	7.2
3857400	7.2
3861000	7.2
3864600	7.2
3868200	7.21
3871800	7.21
3875400	7.21
3879000	7.22
3882600	7.22
3886200	7.23
3889800	7.23
3893400	7.24
3897000	7.24
3900600	7.25
3904200	7.25
3907800	7.26
3911400	7.27
3915000	7.27
3918600	7.28
3922200	7.28
3925800	7.29
3929400	7.29
3933000	7.3
3936600	7.31
3940200	7.31
3943800	7.32
3947400	7.32
3951000	7.32
3954600	7.33
3958200	7.33
3961800	7.34
3965400	7.34
3969000	7.35
3972600	7.35
3976200	7.35
3979800	7.36
3983400	7.36
3987000	7.36
3990600	7.37
3994200	7.37
3997800	7.38
4001400	7.38
4005000	7.38
4008600	7.39
4012200	7.39
4015800	7.4
4019400	7.4
4023000	7.4
4026600	7.41
4030200	7.41
4033800	7.42
4037400	7.42
4041000	7.43
4044600	7.43
4048200	7.44
4051800	7.44
4055400	7.45
4059000	7.45
4062600	7.46
4066200	7.46
4069800	7.47
4073400	7.47
4077000	7.47
4080600	7.48
4084200	7.48
4087800	7.49
4091400	7.49
4095000	7.49
4098600	7.5
4102200	7.5
4105800	7.5
4109400	7.5
4113000	7.5
4116600	7.51
4120200	7.51
4123800	7.51
4127400	7.51
4131000	7.51
4134600	7.51
4138200	7.51
4141800	7.51
4145400	7.51
4149000	7.51
4152600	7.51
4156200	7.51
4159800	7.51
4163400	7.51
4167000	7.51
4170600	7.5
4174200	7.5
4177800	7.5
4181400	7.5
4185000	7.5
4188600	7.5
4192200	7.5
4195800	7.5
4199400	7.5
4203000	7.5
4206600	7.5
4210200	7.5
4213800	7.5
4217400	7.5
4221000	7.5
4224600	7.5
4228200	7.5
4231800	7.5
4235400	7.5
4239000	7.5
4242600	7.5
4246200	7.5
4249800	7.5
4253400	7.5
4257000	7.5
4260600	7.5
4264200	7.5
4267800	7.5
4271400	7.5
4275000	7.5
4278600	7.5
4282200	7.5
4285800	7.5
4289400	7.5
4293000	7.5
4296600	7.5
4300200	7.5
4303800	7.5
4307400	7.5
4311000	7.5
4314600	7.5
4318200	7.5
4321800	7.5
4325400	7.5
4329000	7.5
4332600	7.5
4336200	7.5
4339800	7.5
4343400	7.5
4347000	7.5
4350600	7.5
4354200	7.5
4357800	7.5
4361400	7.5
4365000	7.5
4368600	7.5
4372200	7.5
4375800	7.5
4379400	7.5
4383000	7.5
4386600	7.5
4390200	7.5
4393800	7.5
4397400	7.5
4401000	7.5
4404600	7.5
4408200	7.5
4411800	7.5
4415400	7.5
4419000	7.5
4422600	7.5
4426200	7.5
4429800	7.5
4433400	7.5
4437000	7.5
4440600	7.5
4444200	7.5
4447800	7.5
4451400	7.5
4455000	7.5
4458600	7.5
4462200	7.5
4465800	7.5
4469400	7.5
4473000	7.51
4476600	7.51
4480200	7.51
4483800	7.51
4487400	7.51
4491000	7.51
4494600	7.51
4498200	7.51
4501800	7.51
4505400	7.51
4509000	7.51
4512600	7.51
4516200	7.51
4519800	7.51
4523400	7.51
4527000	7.51
4530600	7.5
4534200	7.5
4537800	7.5
4541400	7.5
4545000	7.49
4548600	7.49
4552200	7.49
4555800	7.48
4559400	7.48
4563000	7.48
4566600	7.47
4570200	7.47
4573800	7.46
4577400	7.46
4581000	7.45
4584600	7.45
4588200	7.44
4591800	7.44
4595400	7.43
4599000	7.43
4602600	7.42
4606200	7.42
4609800	7.42
4613400	7.41
4617000	7.41
4620600	7.4
4624200	7.4
4627800	7.4
4631400	7.39
4635000	7.39
4638600	7.39
4642200	7.39
4645800	7.39
4649400	7.38
4653000	7.38
4656600	7.38
4660200	7.38
4663800	7.38
4667400	7.38
4671000	7.38
4674600	7.38
4678200	7.38
4681800	7.38
4685400	7.38
4689000	7.39
4692600	7.39
4696200	7.39
4699800	7.39
4703400	7.39
4707000	7.4
4710600	7.4
4714200	7.4
4717800	7.41
4721400	7.41
4725000	7.41
4728600	7.42
4732200	7.42
4735800	7.43
4739400	7.43
4743000	7.44
4746600	7.44
4750200	7.44
4753800	7.45
4757400	7.45
4761000	7.46
4764600	7.46
4768200	7.47
4771800	7.47
4775400	7.48
4779000	7.48
4782600	7.48
4786200	7.49
4789800	7.49
4793400	7.5
4797000	7.5
4800600	7.5
4804200	7.51
4807800	7.51
4811400	7.51
4815000	7.52
4818600	7.52
4822200	7.52
4825800	7.52
4829400	7.53
4833000	7.53
4836600	7.53
4840200	7.54
4843800	7.54
4847400	7.54
4851000	7.55
4854600	7.55
4858200	7.56
4861800	7.56
4865400	7.57
4869000	7.57
4872600	7.58
4876200	7.59
4879800	7.59
4883400	7.6
4887000	7.61
4890600	7.62
4894200	7.63
4897800	7.63
4901400	7.64
4905000	7.65
4908600	7.66
4912200	7.67
4915800	7.68
4919400	7.69
4923000	7.7
4926600	7.7
4930200	7.71
4933800	7.72
4937400	7.72
4941000	7.72
4944600	7.73
4948200	7.73
4951800	7.73
4955400	7.72
4959000	7.72
4962600	7.72
4966200	7.71
4969800	7.7
4973400	7.69
4977000	7.68
4980600	7.66
4984200	7.65
4987800	7.63
4991400	7.62
4995000	7.6
4998600	7.59
5002200	7.58
5005800	7.56
5009400	7.55
5013000	7.55
5016600	7.54
5020200	7.54
5023800	7.55
5027400	7.55
5031000	7.56
5034600	7.58
5038200	7.6
5041800	7.63
5045400	7.66
5049000	7.7
5052600	7.75
5056200	7.8
5059800	7.86
5063400	7.93
5067000	8
5070600	8.08
5074200	8.16
5077800	8.24
5081400	8.33
5085000	8.42
5088600	8.5
5092200	8.58
5095800	8.66
5099400	8.74
5103000	8.81
5106600	8.88
5110200	8.94
5113800	8.99
5117400	9.03
5121000	9.07
5124600	9.09
5128200	9.1
5131800	9.1
5135400	9.1
5139000	9.1
5142600	9.1
5146200	9.1
5149800	9.1
5153400	9.1
5157000	9.1
5160600	9.1
5164200	9.1
5167800	9.1
5171400	9.1
5175000	9.1
5178600	9.1
5182200	9.1
5185800	9.1
5189400	9.1
5193000	9.1
5196600	9.1
5200200	9.1
5203800	9.1
5207400	9.2
5211000	9.2
5214600	9.2
5218200	9.2
5221800	9.2
5225400	9.2
5229000	9.2
5232600	9.2
5236200	9.2
5239800	9.2
5243400	9.2
5247000	9.2
5250600	9.2
5254200	9.2
5257800	9.2
5261400	9.2
5265000	9.2
5268600	9.2
5272200	9.2
5275800	9.2
5279400	9.2
5283000	9.2
5286600	9.2
5290200	9.2
5293800	9.2
5297400	9.2
5301000	9.2
5304600	9.2
5308200	9.2
5311800	9.2
5315400	9.2
5319000	9.2
5322600	9.2
5326200	9.2
5329800	9.2
5333400	9.2
5337000	9.2
5340600	9.2
5344200	9.2
5347800	9.2
5351400	9.2
5355000	9.2
5358600	9.2
5362200	9.2
5365800	9.2
5369400	9.2
5373000	9.2
5376600	9.2
5380200	9.2
5383800	9.2
5387400	9.2
5391000	9.2
5394600	9.3
5398200	9.3
5401800	9.3
5405400	9.3
5409000	9.3
5412600	9.3
5416200	9.3
5419800	9.3
5423400	9.3
5427000	9.3
5430600	9.3
5434200	9.3
5437800	9.3
5441400	9.3
5445000	9.3
5448600	9.3
5452200	9.3
5455800	9.3
5459400	9.3
5463000	9.3
5466600	9.3
5470200	9.3
5473800	9.3
5477400	9.3
5481000	9.3
5484600	9.3
5488200	9.3
5491800	9.3
5495400	9.3
5499000	9.3
5502600	9.3
5506200	9.3
5509800	9.3
5513400	9.3
5517000	9.3
5520600	9.3
5524200	9.3
5527800	9.3
5531400	9.3
5535000	9.3
5538600	9.3
5542200	9.3
5545800	9.3
5549400	9.3
5553000	9.3
5556600	9.3
5560200	9.3
5563800	9.3
5567400	9.3
5571000	9.3
5574600	9.3
5578200	9.3
5581800	9.4
5585400	9.4
5589000	9.4
5592600	9.3
5596200	9.4
5599800	9.4
5603400	9.4
5607000	9.4
5610600	9.4
5614200	9.4
5617800	9.4
5621400	9.4
5625000	9.4
5628600	9.4
5632200	9.4
5635800	9.4
5639400	9.4
5643000	9.4
5646600	9.4
5650200	9.4
5653800	9.4
5657400	9.4
5661000	9.4
5664600	9.4
5668200	9.4
5671800	9.4
5675400	9.4
5679000	9.4
5682600	9.4
5686200	9.4
5689800	9.4
5693400	9.4
5697000	9.4
5700600	9.4
5704200	9.4
5707800	9.4
5711400	9.4
5715000	9.4
5718600	9.4
5722200	9.4
5725800	9.4
5729400	9.4
5733000	9.4
5736600	9.4
5740200	9.4
5743800	9.4
5747400	9.4
5751000	9.4
5754600	9.4
5758200	9.4
5761800	9.4
5765400	9.4
5769000	9.4
5772600	9.4
5776200	9.4
5779800	9.4
5783400	9.4
5787000	9.4
5790600	9.4
5794200	9.4
5797800	9.4
5801400	9.4
5805000	9.4
5808600	9.4
5812200	9.4
5815800	9.4
5819400	9.4
5823000	9.4
5826600	9.4
5830200	9.4
5833800	9.4
5837400	9.4
5841000	9.4
5844600	9.4
5848200	9.4
5851800	9.4
5855400	9.4
5859000	9.4
5862600	9.4
5866200	9.4
5869800	9.4
5873400	9.4
5877000	9.4
5880600	9.4
5884200	9.4
5887800	9.4
5891400	9.4
5895000	9.4
5898600	9.4
5902200	9.4
5905800	9.4
5909400	9.4
5913000	9.4
5916600	9.4
5920200	9.4
5923800	9.4
5927400	9.4
5931000	9.4
5934600	9.4
5938200	9.4
5941800	9.4
5945400	9.4
5949000	9.4
